 W46Ru37B17 Density=19.3
 Wavelength (nm), Delta, Beta
  0.0500000007  5.32741433E-06  2.99899739E-07
  0.0509039536  5.51474614E-06  3.20155635E-07
  0.0518242493  5.70693237E-06  3.4175082E-07
  0.0527611859  5.90291165E-06  3.64764674E-07
  0.0537150577  6.10081406E-06  3.8929187E-07
  0.0546861775  6.29436045E-06  4.15428673E-07
  0.0556748509  6.29807982E-06  4.43288201E-07
  0.056681402  6.690379E-06  3.17943346E-07
  0.0577061549  7.00323244E-06  3.39631669E-07
  0.0587494262  7.28160239E-06  3.62786579E-07
  0.0598115623  7.56158897E-06  3.87506503E-07
  0.0608928986  7.84757685E-06  4.13888188E-07
  0.0619937852  8.14148552E-06  4.42048105E-07
  0.063114576  8.44441547E-06  4.72100936E-07
  0.0642556325  8.75704336E-06  5.0417168E-07
  0.0654173121  9.07991944E-06  5.3839409E-07
  0.0665999949  9.41351027E-06  5.74907006E-07
  0.0678040609  9.75826424E-06  6.13865438E-07
  0.0690298975  1.0114597E-05  6.55428209E-07
  0.0702778921  1.04828923E-05  6.9975539E-07
  0.0715484545  1.08634486E-05  7.47040701E-07
  0.072841987  1.12567013E-05  7.97461325E-07
  0.0741588995  1.16630317E-05  8.51225138E-07
  0.075499624  1.20827754E-05  9.08554284E-07
  0.0768645927  1.25162505E-05  9.69668235E-07
  0.0782542303  1.29637683E-05  1.03481875E-06
  0.0796689913  1.34256079E-05  1.10425026E-06
  0.0811093375  1.39020194E-05  1.17825266E-06
  0.0825757235  1.43931165E-05  1.25708868E-06
  0.0840686187  1.48989457E-05  1.34108518E-06
  0.0855884999  1.54196696E-05  1.43054615E-06
  0.0871358588  1.59552055E-05  1.52583652E-06
  0.0887111947  1.65053443E-05  1.6273076E-06
  0.0903150067  1.70696094E-05  1.73534875E-06
  0.0919478238  1.76472022E-05  1.85036276E-06
  0.0936101601  1.82368349E-05  1.97275426E-06
  0.0953025445  1.88363028E-05  2.10302778E-06
  0.0970255211  1.94403729E-05  2.24159157E-06
  0.098779656  2.00407048E-05  2.38897314E-06
  0.100565493  2.06095283E-05  2.54568658E-06
  0.102383628  2.05572487E-05  2.71248382E-06
  0.104234636  2.18449568E-05  2.56182284E-06
  0.106119096  2.24237156E-05  2.73696469E-06
  0.108037643  2.26114535E-05  2.18118748E-06
  0.109990858  2.41794041E-05  2.33519791E-06
  0.111979388  2.51171168E-05  2.50005724E-06
  0.114003874  2.59963108E-05  2.67657242E-06
  0.116064958  2.68277108E-05  2.8655295E-06
  0.118163303  2.75571347E-05  3.06781499E-06
  0.120299593  2.76922528E-05  3.28438864E-06
  0.122474492  2.74550021E-05  1.67511371E-06
  0.124688722  3.06254078E-05  1.78718346E-06
  0.126942977  3.20819418E-05  1.90682692E-06
  0.129237995  3.34787255E-05  2.03573632E-06
  0.131574497  3.48727372E-05  2.17351294E-06
  0.133953243  3.62909377E-05  2.32045454E-06
  0.136374995  3.77393335E-05  2.4773035E-06
  0.138840526  3.92281072E-05  2.64458481E-06
  0.141350642  4.07614134E-05  2.82297356E-06
  0.143906116  4.23421588E-05  3.01315822E-06
  0.146507815  4.39752839E-05  3.21613447E-06
  0.149156541  4.56623929E-05  3.43264378E-06
  0.151853159  4.74068947E-05  3.66345807E-06
  0.154598519  4.92118379E-05  3.90968762E-06
  0.157393515  5.10787795E-05  4.17222327E-06
  0.160239041  5.30114266E-05  4.45208661E-06
  0.16313602  5.50119294E-05  4.75070283E-06
  0.166085377  5.70828015E-05  5.06885908E-06
  0.169088051  5.92271863E-05  5.40822248E-06
  0.172144994  6.14471282E-05  5.77001811E-06
  0.175257221  6.37457706E-05  6.15563658E-06
  0.178425714  6.61261583E-05  6.56673728E-06
  0.181651488  6.8590336E-05  7.00504097E-06
  0.18493557  7.11420071E-05  7.47220838E-06
  0.188279033  7.37836672E-05  7.97003395E-06
  0.19168295  7.65184086E-05  8.50064407E-06
  0.195148394  7.93497456E-05  9.06610967E-06
  0.198676512  8.22798756E-05  9.66874813E-06
  0.202268392  8.53126985E-05  1.03108796E-05
  0.205925226  8.84514593E-05  1.09948924E-05
  0.209648162  9.16987119E-05  1.17237041E-05
  0.213438392  9.5058851E-05  1.25001116E-05
  0.217297181  9.85343286E-05  1.33272079E-05
  0.221225694  0.00010212879  1.42081335E-05
  0.225225255  0.000105846237  1.51464028E-05
  0.229297116  0.000109688401  1.61454773E-05
  0.233442619  0.000113660521  1.72095115E-05
  0.237663031  0.000117765281  1.83423763E-05
  0.241959766  0.000122005149  1.95484499E-05
  0.24633418  0.000126385203  2.08323909E-05
  0.250787675  0.000130906919  2.21987502E-05
  0.255321681  0.000135574403  2.36534452E-05
  0.259937674  0.000140391276  2.52015288E-05
  0.264637083  0.000145357117  2.68485546E-05
  0.269421488  0.000150478489  2.86010509E-05
  0.27429238  0.000155755784  3.04655441E-05
  0.279251337  0.000161190008  3.24485845E-05
  0.28429994  0.000166786282  3.45578883E-05
  0.289439827  0.000172540313  3.68009678E-05
  0.294672638  0.000178456961  3.91859685E-05
  0.300000042  0.000184535966  4.17216906E-05