 Au Density=3.44
 Wavelength (nm), Delta, Beta
  0.0500000007  9.27005658E-07  5.91411791E-08
  0.0509039536  9.6063809E-07  6.31593551E-08
  0.0518242493  9.95441383E-07  6.74459102E-08
  0.0527611859  1.03145385E-06  7.20183024E-08
  0.0537150577  1.06871016E-06  7.68949207E-08
  0.0546861775  1.10724841E-06  8.20956103E-08
  0.0556748509  1.14710338E-06  8.76411974E-08
  0.056681402  1.18831213E-06  9.35536946E-08
  0.0577061549  1.23091115E-06  9.98561163E-08
  0.0587494262  1.27493524E-06  1.06573587E-07
  0.0598115623  1.32041623E-06  1.13732099E-07
  0.0608928986  1.36738265E-06  1.2135942E-07
  0.0619937852  1.41587293E-06  1.29484349E-07
  0.063114576  1.46591822E-06  1.38138432E-07
  0.0642556325  1.51754591E-06  1.47354484E-07
  0.0654173121  1.57077875E-06  1.57167875E-07
  0.0665999949  1.62563788E-06  1.67614971E-07
  0.0678040609  1.68213649E-06  1.78734297E-07
  0.0690298975  1.74028128E-06  1.90566283E-07
  0.0702778921  1.80004122E-06  2.03153846E-07
  0.0715484545  1.86141165E-06  2.16540002E-07
  0.072841987  1.92436255E-06  2.3077699E-07
  0.0741588995  1.98883322E-06  2.45912872E-07
  0.075499624  2.05473498E-06  2.62000242E-07
  0.0768645927  2.12192617E-06  2.79094337E-07
  0.0782542303  2.19019489E-06  2.9725291E-07
  0.0796689913  2.25920712E-06  3.16541644E-07
  0.0811093375  2.32839102E-06  3.37017866E-07
  0.0825757235  2.39648216E-06  3.58745524E-07
  0.0840686187  2.4610672E-06  3.81797975E-07
  0.0855884999  2.47771072E-06  4.06275262E-07
  0.0871358588  2.56765452E-06  3.76781344E-07
  0.0887111947  2.65663766E-06  4.02361252E-07
  0.0903150067  2.47301205E-06  3.08089653E-07
  0.0919478238  2.84253974E-06  3.29320898E-07
  0.0936101601  2.9667483E-06  3.52014752E-07
  0.0953025445  3.07650726E-06  3.76276802E-07
  0.0970255211  3.18003003E-06  4.02205245E-07
  0.098779656  3.27655107E-06  4.29924938E-07
  0.100565493  3.35958839E-06  4.59556531E-07
  0.102383628  3.40055385E-06  4.91230423E-07
  0.104234636  2.96120197E-06  2.10557729E-07
  0.106119096  3.67177063E-06  2.24506664E-07
  0.108037643  3.8809676E-06  2.39397735E-07
  0.109990858  4.06575646E-06  2.55300705E-07
  0.111979388  4.24527752E-06  2.72284865E-07
  0.114003874  4.42567671E-06  2.9041945E-07
  0.116064958  4.60900492E-06  3.09785122E-07
  0.118163303  4.79648088E-06  3.30464701E-07
  0.120299593  4.98893723E-06  3.52547431E-07
  0.122474492  5.1869938E-06  3.76126451E-07
  0.124688722  5.39117173E-06  4.01305442E-07
  0.126942977  5.60189437E-06  4.28198547E-07
  0.129237995  5.81951326E-06  4.56913881E-07
  0.131574497  6.04441129E-06  4.87572038E-07
  0.133953243  6.27698955E-06  5.20294691E-07
  0.136374995  6.51760092E-06  5.55220083E-07
  0.138840526  6.76659647E-06  5.92497258E-07
  0.141350642  7.02431498E-06  6.32291346E-07
  0.143906116  7.29108433E-06  6.74778789E-07
  0.146507815  7.56724785E-06  7.20135006E-07
  0.149156541  7.8531375E-06  7.68544453E-07
  0.151853159  8.14905798E-06  8.20185846E-07
  0.154598519  8.45543127E-06  8.75276612E-07
  0.157393515  8.77263028E-06  9.34054981E-07
  0.160239041  9.10103154E-06  9.96771178E-07
  0.16313602  9.44098065E-06  1.06369316E-06
  0.166085377  9.79283686E-06  1.13505916E-06
  0.169088051  1.01570422E-05  1.21114113E-06
  0.172144994  1.05339905E-05  1.29229204E-06
  0.175257221  1.092398E-05  1.37885661E-06
  0.178425714  1.13274164E-05  1.47109904E-06
  0.181651488  1.17447507E-05  1.56941894E-06
  0.18493557  1.21763978E-05  1.67420797E-06
  0.188279033  1.26227451E-05  1.78589141E-06
  0.19168295  1.30841836E-05  1.90489197E-06
  0.195148394  1.35610589E-05  2.03165519E-06
  0.198676512  1.40540933E-05  2.16670082E-06
  0.202268392  1.45636222E-05  2.31134936E-06
  0.205925226  1.50851229E-05  2.46490549E-06
  0.209648162  1.56280112E-05  2.61868445E-06
  0.213438392  1.61829921E-05  2.79643245E-06
  0.217297181  1.67596772E-05  2.97146016E-06
  0.221225694  1.7360464E-05  3.16256092E-06
  0.225225255  1.79793788E-05  3.36767471E-06
  0.229297116  1.8621633E-05  3.58696821E-06
  0.233442619  1.9258001E-05  3.83505585E-06
  0.237663031  1.99230162E-05  4.04282036E-06
  0.241959766  2.06296645E-05  4.30538057E-06
  0.24633418  2.13471358E-05  4.57059423E-06
  0.250787675  2.20975253E-05  4.85172859E-06
  0.255321681  2.28709378E-05  5.15785587E-06
  0.259937674  2.36664382E-05  5.48514572E-06
  0.264637083  2.44833373E-05  5.83653082E-06
  0.269421488  2.53198177E-05  6.21131676E-06
  0.27429238  2.61779751E-05  6.60720207E-06
  0.279251337  2.70527908E-05  7.03041951E-06
  0.28429994  2.79498108E-05  7.46963315E-06
  0.289439827  2.88694209E-05  7.92850187E-06
  0.294672638  2.98675823E-05  8.41355268E-06
  0.300000042  3.08497365E-05  8.99215866E-06